# Matter power spectrum P(k) at redshift z=0
# for k=1.05076e-05 to 8.19543 h/Mpc,
# number of wavenumbers equal to 1964
#    1:k (h/Mpc)              2:P (Mpc/h)^3        
       1.050757505011e-05       4.957850713390e+01 
       2.348223452994e-05       1.072892581024e+02 
       3.650313702560e-05       1.638607916159e+02 
       4.960582904370e-05       2.199568037592e+02 
       6.282645309691e-05       2.759478116053e+02 
       7.620207466416e-05       3.321072763675e+02 
       8.977101974556e-05       3.886663802343e+02 
       1.035732275618e-04       4.458363459459e+02 
       1.176506229824e-04       5.038198032352e+02 
       1.320475133023e-04       5.628175941276e+02 
       1.468110139869e-04       6.230334672934e+02 
       1.619915079397e-04       6.846776659328e+02 
       1.776431426455e-04       7.479699718759e+02 
       1.938243691307e-04       8.131424502158e+02 
       2.105985259611e-04       8.804420719679e+02 
       2.280344703060e-04       9.501332676458e+02 
       2.462072562740e-04       1.022500505736e+03 
       2.651988580049e-04       1.097850844510e+03 
       2.850989311075e-04       1.176516507205e+03 
       3.060056005899e-04       1.258857380961e+03 
       3.280262560362e-04       1.345263378235e+03 
       3.512783249991e-04       1.436156547312e+03 
       3.758899830185e-04       1.531992727818e+03 
       4.020007430868e-04       1.633262542695e+03 
       4.297618488531e-04       1.740491423985e+03 
       4.593363750703e-04       1.854238263479e+03 
       4.908989173575e-04       1.975092316852e+03 
       5.246347342695e-04       2.103667790601e+03 
       5.607381926418e-04       2.240595674289e+03 
       5.994103688299e-04       2.386512296990e+03 
       6.408556819116e-04       2.542044342659e+03 
       6.852774885884e-04       2.707790199058e+03 
       7.328726595971e-04       2.884297924734e+03 
       7.838252843261e-04       3.072040739289e+03 
       8.382998044452e-04       3.271391325615e+03 
       8.964340364041e-04       3.482596830350e+03 
       9.583326723091e-04       3.705757100618e+03 
       1.024061909180e-03       3.940808414642e+03 
       1.093645814802e-03       4.187515024422e+03 
       1.167064882243e-03       4.445469855521e+03 
       1.244256973402e-03       4.714104903780e+03 
       1.325120553479e-03       4.992710447122e+03 
       1.409519837982e-03       5.280436295156e+03 
       1.497291271669e-03       5.576378290980e+03 
       1.588250669930e-03       5.879585165146e+03 
       1.682200379618e-03       6.189066724323e+03 
       1.778935931965e-03       6.503835033716e+03 
       1.878251823742e-03       6.822926362666e+03 
       1.979946233350e-03       7.145418460579e+03 
       2.083824625969e-03       7.470443171209e+03 
       2.189702310605e-03       7.797194117522e+03 
       2.297406079023e-03       8.124931682884e+03 
       2.406775087688e-03       8.452983602492e+03 
       2.517661148270e-03       8.780744005921e+03 
       2.629928579656e-03       9.107671120567e+03 
       2.743453752917e-03       9.433282617041e+03 
       2.858124436144e-03       9.757152691013e+03 
       2.973839022199e-03       1.007890550966e+04 
       3.090505701319e-03       1.039821302815e+04 
       3.208041622852e-03       1.071478778730e+04 
       3.326372076443e-03       1.102838051388e+04 
       3.445429712203e-03       1.133877563134e+04 
       3.565153811453e-03       1.164578625154e+04 
       3.685489613907e-03       1.194925225189e+04 
       3.806387703186e-03       1.224903801748e+04 
       3.927803449852e-03       1.254502654926e+04 
       4.049696509507e-03       1.283712328631e+04 
       4.172030372456e-03       1.312524497616e+04 
       4.294771960928e-03       1.340932945793e+04 
       4.417891269673e-03       1.368932009315e+04 
       4.541361045780e-03       1.396517634355e+04 
       4.665156503725e-03       1.423686885000e+04 
       4.789255071932e-03       1.450434995421e+04 
       4.913636167402e-03       1.476764051577e+04 
       5.038280995278e-03       1.502672958556e+04 
       5.163172370535e-03       1.528159180287e+04 
       5.288294559268e-03       1.553223780199e+04 
       5.413633137309e-03       1.577876166128e+04 
       5.539174864194e-03       1.602107258020e+04 
       5.664907570695e-03       1.625847412652e+04 
       5.790820058363e-03       1.649244936466e+04 
       5.916902009693e-03       1.672230889650e+04 
       6.043143907698e-03       1.694801873862e+04 
       6.169536963826e-03       1.716964649093e+04 
       6.296073053273e-03       1.738726891607e+04 
       6.422744656854e-03       1.760082010275e+04 
       6.549544808723e-03       1.781043836130e+04 
       6.676467049265e-03       1.801623585906e+04 
       6.803505382622e-03       1.821799383543e+04 
       6.930654238336e-03       1.841573630530e+04 
       7.057908436665e-03       1.860987809396e+04 
       7.185263157193e-03       1.880010704806e+04 
       7.312713910372e-03       1.898652956966e+04 
       7.440256511704e-03       1.916908845829e+04 
       7.567887058280e-03       1.934792639716e+04 
       7.695601907448e-03       1.952320404321e+04 
       7.823397657378e-03       1.969464818386e+04 
       7.951271129353e-03       1.986275568981e+04 
       8.079219351600e-03       2.002781509298e+04 
       8.207239544522e-03       2.018877443766e+04 
       8.335329107188e-03       2.034621855754e+04 
       8.463485604967e-03       2.050024111726e+04 
       8.591706758194e-03       2.065088367535e+04 
       8.719990431767e-03       2.079809714267e+04 
       8.848334625608e-03       2.094200013293e+04 
       8.976737465878e-03       2.108259290874e+04 
       9.105197196911e-03       2.121990065929e+04 
       9.233712173778e-03       2.135397274922e+04 
       9.362280855441e-03       2.148488409799e+04 
       9.490901798431e-03       2.161266399027e+04 
       9.619573651023e-03       2.173730707931e+04 
       9.748295147846e-03       2.185886562728e+04 
       9.877065104910e-03       2.197735801905e+04 
       1.000588241500e-02       2.209287628628e+04 
       1.013474604341e-02       2.220540370195e+04 
       1.026365502400e-02       2.231497482887e+04 
       1.039260845554e-02       2.242165169473e+04 
       1.052160549832e-02       2.252544529867e+04 
       1.065064537100e-02       2.262638574494e+04 
       1.077972734767e-02       2.272451492783e+04 
       1.090885075517e-02       2.281985029057e+04 
       1.103801497058e-02       2.291246504982e+04 
       1.116721941883e-02       2.300235031096e+04 
       1.129646357056e-02       2.308955146079e+04 
       1.142574694011e-02       2.317411086247e+04 
       1.155506908358e-02       2.325613125363e+04 
       1.168442959716e-02       2.333533710638e+04 
       1.181382811545e-02       2.341215568960e+04 
       1.194326430996e-02       2.348640106197e+04 
       1.207273788769e-02       2.355826539311e+04 
       1.220224858987e-02       2.362749546772e+04 
       1.233179619068e-02       2.369438776243e+04 
       1.246138049616e-02       2.375868723216e+04 
       1.259100134315e-02       2.382075481479e+04 
       1.272065859831e-02       2.388054676643e+04 
       1.285035215723e-02       2.393782950940e+04 
       1.298008194358e-02       2.399286719123e+04 
       1.310984790833e-02       2.404577800395e+04 
       1.323965002905e-02       2.409615571856e+04 
       1.336948830923e-02       2.414464743566e+04 
       1.349936277767e-02       2.419069448833e+04 
       1.362927348794e-02       2.423466355614e+04 
       1.375922051782e-02       2.427651461409e+04 
       1.388920396887e-02       2.431622530759e+04 
       1.401922396599e-02       2.435397409754e+04 
       1.414928065700e-02       2.438961439719e+04 
       1.427937421230e-02       2.442315476272e+04 
       1.440950482457e-02       2.445387293769e+04 
       1.453967270845e-02       2.448429822653e+04 
       1.466987810031e-02       2.451194773978e+04 
       1.480012125798e-02       2.453763478941e+04 
       1.493040246064e-02       2.456052521425e+04 
       1.506072200856e-02       2.458337505217e+04 
       1.519108022300e-02       2.460268998467e+04 
       1.532147744611e-02       2.462080593995e+04 
       1.545191404081e-02       2.463808563944e+04 
       1.558239039073e-02       2.465272639402e+04 
       1.571290690018e-02       2.466570142688e+04 
       1.584346399412e-02       2.467567597550e+04 
       1.597406211812e-02       2.468528614043e+04 
       1.610470173847e-02       2.469384781392e+04 
       1.623538334212e-02       2.469990761956e+04 
       1.636610743681e-02       2.470430399428e+04 
       1.649687455113e-02       2.470708906250e+04 
       1.662768523461e-02       2.470838506663e+04 
       1.675854005783e-02       2.470787153472e+04 
       1.688943961258e-02       2.470540701696e+04 
       1.702038451199e-02       2.470239880062e+04 
       1.715137539073e-02       2.469736618989e+04 
       1.728241290514e-02       2.469018540238e+04 
       1.741349773351e-02       2.468288120694e+04 
       1.754463057624e-02       2.467353382677e+04 
       1.767581215612e-02       2.466200715169e+04 
       1.780704321856e-02       2.465028646125e+04 
       1.793832453186e-02       2.463593846570e+04 
       1.806965688753e-02       2.462162244082e+04 
       1.820104110056e-02       2.460430586468e+04 
       1.833247800976e-02       2.458741427883e+04 
       1.846396847811e-02       2.456808397825e+04 
       1.859551339308e-02       2.454826548486e+04 
       1.872711366703e-02       2.452607396700e+04 
       1.885877023761e-02       2.450304914925e+04 
       1.899048406812e-02       2.447976376332e+04 
       1.912225614800e-02       2.445354819092e+04 
       1.925408749321e-02       2.442697370839e+04 
       1.938597914671e-02       2.439939469164e+04 
       1.951793217897e-02       2.437142667114e+04 
       1.964994768840e-02       2.434062974035e+04 
       1.978202680194e-02       2.431055928475e+04 
       1.991417067551e-02       2.427841383240e+04 
       2.004638049464e-02       2.424418130974e+04 
       2.017865747499e-02       2.421077561813e+04 
       2.031100286294e-02       2.417534005484e+04 
       2.044341793625e-02       2.413834455866e+04 
       2.057590400462e-02       2.410068899334e+04 
       2.070846241043e-02       2.406316316828e+04 
       2.084109452931e-02       2.402300281898e+04 
       2.097380177094e-02       2.398265432346e+04 
       2.110658557969e-02       2.394215530222e+04 
       2.123944743540e-02       2.389935669227e+04 
       2.137238885416e-02       2.385686859385e+04 
       2.150541138907e-02       2.381226535690e+04 
       2.163851663104e-02       2.376731933310e+04 
       2.177170620971e-02       2.372170098629e+04 
       2.190498179423e-02       2.367510993861e+04 
       2.203834509420e-02       2.362767879344e+04 
       2.217179786059e-02       2.357943766338e+04 
       2.230534188670e-02       2.353051189532e+04 
       2.243897900911e-02       2.348092481586e+04 
       2.257271110873e-02       2.343032675528e+04 
       2.270654011183e-02       2.337869175139e+04 
       2.284046799110e-02       2.332692430458e+04 
       2.297449676680e-02       2.327398123550e+04 
       2.310862850787e-02       2.322070751776e+04 
       2.324286533311e-02       2.316648683765e+04 
       2.337720941246e-02       2.311180925895e+04 
       2.351166296815e-02       2.305610604202e+04 
       2.364622827611e-02       2.299991606718e+04 
       2.378090766722e-02       2.294325101378e+04 
       2.391570352875e-02       2.288604509214e+04 
       2.405061830573e-02       2.282786454376e+04 
       2.418565450247e-02       2.276923390353e+04 
       2.432081468404e-02       2.271029622475e+04 
       2.445610147785e-02       2.265034912168e+04 
       2.459151757527e-02       2.259017941350e+04 
       2.472706573329e-02       2.252944068062e+04 
       2.486274877623e-02       2.246795775045e+04 
       2.499856959753e-02       2.240635137928e+04 
       2.513453116161e-02       2.234379026941e+04 
       2.527063650571e-02       2.228088332426e+04 
       2.540688874189e-02       2.221757538665e+04 
       2.554329105906e-02       2.215383240863e+04 
       2.567984672505e-02       2.208964014277e+04 
       2.581655908876e-02       2.202499472047e+04 
       2.595343158245e-02       2.195986397148e+04 
       2.609046772400e-02       2.189440439420e+04 
       2.622767111932e-02       2.182851391438e+04 
       2.636504546481e-02       2.176223064267e+04 
       2.650259454997e-02       2.169552020757e+04 
       2.664032225996e-02       2.162846860935e+04 
       2.677823257843e-02       2.156110781446e+04 
       2.691632959029e-02       2.149336990115e+04 
       2.705461748470e-02       2.142524820890e+04 
       2.719310055806e-02       2.135691907307e+04 
       2.733178321723e-02       2.128812220974e+04 
       2.747066998273e-02       2.121913163848e+04 
       2.760976549217e-02       2.114984111704e+04 
       2.774907450374e-02       2.108038913023e+04 
       2.788860189986e-02       2.101034394781e+04 
       2.802835269097e-02       2.094014943426e+04 
       2.816833201940e-02       2.086977807154e+04 
       2.830854516350e-02       2.079909409684e+04 
       2.844899754182e-02       2.072817036535e+04 
       2.858969471748e-02       2.065715859541e+04 
       2.873064240278e-02       2.058570233118e+04 
       2.887184646388e-02       2.051423977500e+04 
       2.901331292571e-02       2.044245386747e+04 
       2.915504797714e-02       2.037052336747e+04 
       2.929705797621e-02       2.029846191046e+04 
       2.943934945573e-02       2.022612552222e+04 
       2.958192912899e-02       2.015362466192e+04 
       2.972480389576e-02       2.008102718860e+04 
       2.986798084851e-02       2.000820593850e+04 
       3.001146727891e-02       1.993535105127e+04 
       3.015527068461e-02       1.986229232268e+04 
       3.029939877624e-02       1.978902276792e+04 
       3.044385948480e-02       1.971568394847e+04 
       3.058866096933e-02       1.964257714664e+04 
       3.073381162486e-02       1.956891166226e+04 
       3.087932009078e-02       1.949506779731e+04 
       3.102519525957e-02       1.942130553140e+04 
       3.117144628587e-02       1.934771386926e+04 
       3.131808259599e-02       1.927371865868e+04 
       3.146511389788e-02       1.919958908278e+04 
       3.161255019147e-02       1.912562686376e+04 
       3.176040177959e-02       1.905154054782e+04 
       3.190867927932e-02       1.897737544123e+04 
       3.205739363390e-02       1.890306994925e+04 
       3.220655612522e-02       1.882872819989e+04 
       3.235617838686e-02       1.875435305676e+04 
       3.250627241784e-02       1.867999735750e+04 
       3.265685059696e-02       1.860540784016e+04 
       3.280792569789e-02       1.853108192391e+04 
       3.295951090499e-02       1.845659971523e+04 
       3.311161982994e-02       1.838210657772e+04 
       3.326426652924e-02       1.830765963627e+04 
       3.341746552250e-02       1.823298922324e+04 
       3.357123181184e-02       1.815865919692e+04 
       3.372558090217e-02       1.808410286382e+04 
       3.388052882260e-02       1.800946609412e+04 
       3.403609214897e-02       1.793482830410e+04 
       3.419228802765e-02       1.786032897746e+04 
       3.434913420056e-02       1.778598403026e+04 
       3.450664903163e-02       1.771144061935e+04 
       3.466485153470e-02       1.763699510992e+04 
       3.482376140306e-02       1.756235476319e+04 
       3.498339904055e-02       1.748811292000e+04 
       3.514378559459e-02       1.741361812509e+04 
       3.530494299104e-02       1.733920835832e+04 
       3.546689397117e-02       1.726488497289e+04 
       3.562966213080e-02       1.719043520066e+04 
       3.579327196185e-02       1.711605195438e+04 
       3.595774889638e-02       1.704194439964e+04 
       3.612311935339e-02       1.696752425055e+04 
       3.628941078853e-02       1.689355240470e+04 
       3.645665174696e-02       1.681906713564e+04 
       3.662487191962e-02       1.674511696697e+04 
       3.679410220315e-02       1.667088549318e+04 
       3.696437476373e-02       1.659680855253e+04 
       3.713572310523e-02       1.652276685610e+04 
       3.730818214186e-02       1.644880004496e+04 
       3.748178827593e-02       1.637504029954e+04 
       3.765657948090e-02       1.630093070037e+04 
       3.783259539026e-02       1.622706499603e+04 
       3.800987739282e-02       1.615314092871e+04 
       3.818846873483e-02       1.607934615412e+04 
       3.836841462956e-02       1.600550167139e+04 
       3.854976237506e-02       1.593182275125e+04 
       3.873256148080e-02       1.585816739004e+04 
       3.891686380394e-02       1.578435693570e+04 
       3.910272369622e-02       1.571071943654e+04 
       3.929019816237e-02       1.563701689198e+04 
       3.947934703129e-02       1.556337317723e+04 
       3.967023314096e-02       1.548999987105e+04 
       3.986292253876e-02       1.541611743086e+04 
       4.005748469847e-02       1.534251203082e+04 
       4.025399275576e-02       1.526888391742e+04 
       4.045252376410e-02       1.519530490375e+04 
       4.065315897310e-02       1.512163140549e+04 
       4.085598413178e-02       1.504795657155e+04 
       4.106108981946e-02       1.497433065014e+04 
       4.126857180718e-02       1.490065857517e+04 
       4.147853145326e-02       1.482692689635e+04 
       4.169107613667e-02       1.475315764460e+04 
       4.190631973282e-02       1.467929600716e+04 
       4.212438313654e-02       1.460546618713e+04 
       4.234539483810e-02       1.453148723345e+04 
       4.256949155868e-02       1.445746373987e+04 
       4.279681895272e-02       1.438339284393e+04 
       4.302753238562e-02       1.430919617582e+04 
       4.326179779665e-02       1.423487561315e+04 
       4.349979265823e-02       1.416044066262e+04 
       4.374170704467e-02       1.408584310523e+04 
       4.398774482543e-02       1.401115034397e+04 
       4.423812500032e-02       1.393629438508e+04 
       4.449308319730e-02       1.386147939173e+04 
       4.475287335636e-02       1.378590495244e+04 
       4.501776962781e-02       1.371041732176e+04 
       4.528806851765e-02       1.363470329262e+04 
       4.556409131884e-02       1.355889249805e+04 
       4.584618687453e-02       1.348271048209e+04 
       4.613473472777e-02       1.340571004158e+04 
       4.643014872277e-02       1.332902285429e+04 
       4.673288113584e-02       1.325187799712e+04 
       4.704342742951e-02       1.317411551029e+04 
       4.736233174296e-02       1.309579193380e+04 
       4.769019325576e-02       1.301711533264e+04 
       4.802767359136e-02       1.293795766103e+04 
       4.837550546417e-02       1.285837855845e+04 
       4.873450281977e-02       1.277781745355e+04 
       4.910557277629e-02       1.269692600618e+04 
       4.948972974802e-02       1.261533806650e+04 
       4.988811222492e-02       1.253259940074e+04 
       5.030200279946e-02       1.244901167042e+04 
       5.073285218183e-02       1.236392852765e+04 
       5.118230813508e-02       1.227826587603e+04 
       5.165225050548e-02       1.219114968173e+04 
       5.214483383189e-02       1.210343988805e+04 
       5.266253941017e-02       1.201337539015e+04 
       5.320823917860e-02       1.192193836091e+04 
       5.378527439354e-02       1.182820854421e+04 
       5.439755278294e-02       1.173227443150e+04 
       5.504966866979e-02       1.163333236486e+04 
       5.574705135058e-02       1.153167824142e+04 
       5.649614755072e-02       1.142640560763e+04 
       5.730464351751e-02       1.131660848741e+04 
       5.818173013752e-02       1.120141741412e+04 
       5.913840819700e-02       1.107968177084e+04 
       6.018781651159e-02       1.095022364758e+04 
       6.134553623233e-02       1.081066435147e+04 
       6.262976987959e-02       1.065860947217e+04 
